#	Leaf optical properties from FREEDLES data	
#	"Hovi, A., Schraik, D., Hanu, J., Luke, P., et al. (2024) A spectral-structural characterization of European temperate, hemiboreal and boreal forests: Laboratory and field data. [Online]. Available from: doi:10.23729/9a8d90cd-73e2-438d-9230-94e10e61adc9."	
#	"Betula Pendula, adaxial side only"	
#	"Hyytiðlð, Finland, midsummer, average of all measurements"	
#wl(nm)	reflectance	transmittance
350	0.169279862	0.150020845
351	0.162898441	0.135281161
352	0.152433122	0.12353261
353	0.140237494	0.111314744
354	0.128317849	0.096886656
355	0.116586127	0.086243337
356	0.104240741	0.07683346
357	0.095749856	0.068768266
358	0.092052462	0.061277811
359	0.085256587	0.049836811
360	0.079180059	0.041219368
361	0.073758137	0.03572758
362	0.068576531	0.03176172
363	0.064830396	0.027813763
364	0.062340209	0.023849065
365	0.060328876	0.020511023
366	0.058108469	0.018259604
367	0.055662058	0.016088572
368	0.0541984	0.014720212
369	0.053552297	0.013833544
370	0.052872667	0.012643394
371	0.051680723	0.011065567
372	0.05072311	0.010139548
373	0.050117338	0.009658057
374	0.049422021	0.008497232
375	0.049030935	0.007946917
376	0.04871263	0.007653716
377	0.048424791	0.007277271
378	0.048464891	0.006797282
379	0.048385361	0.006459759
380	0.048148273	0.006143046
381	0.047812416	0.005795153
382	0.047398704	0.005669912
383	0.047283046	0.005575688
384	0.047323019	0.005414922
385	0.047292677	0.005193869
386	0.04726338	0.005159195
387	0.047119628	0.005034621
388	0.047067021	0.00494446
389	0.047326527	0.005074649
390	0.047437923	0.004911901
391	0.047412694	0.004719857
392	0.047301679	0.004673798
393	0.047162729	0.004797304
394	0.047073228	0.004754713
395	0.047152968	0.004803312
396	0.047350305	0.004925388
397	0.047445798	0.004741894
398	0.047390954	0.004741109
399	0.047426109	0.004787943
400	0.047595953	0.004792653
401	0.04749379	0.004983643
402	0.047456544	0.005026591
403	0.04752679	0.005002001
404	0.047632562	0.005060682
405	0.047614713	0.005186308
406	0.047642875	0.005350007
407	0.047754682	0.005492452
408	0.047884362	0.005584523
409	0.047799289	0.005798388
410	0.047876515	0.00605983
411	0.048077832	0.006295361
412	0.048079864	0.006462804
413	0.048156253	0.006672381
414	0.048190715	0.00693704
415	0.04818077	0.007227653
416	0.048309379	0.007485255
417	0.04839684	0.007761823
418	0.048434434	0.008056932
419	0.048483065	0.008364916
420	0.0486769	0.008688125
421	0.048720606	0.009064719
422	0.048734352	0.009440022
423	0.04888526	0.009758599
424	0.048975714	0.010073693
425	0.049076391	0.010418435
426	0.049187508	0.010765397
427	0.049271059	0.011069356
428	0.049328423	0.011423746
429	0.049399365	0.011734773
430	0.049499027	0.011990376
431	0.049610579	0.012273125
432	0.049666351	0.01250026
433	0.049725746	0.012753208
434	0.049816281	0.013069548
435	0.049861334	0.013354706
436	0.049871861	0.01363922
437	0.049937067	0.013907059
438	0.050104508	0.014160211
439	0.050202585	0.014507073
440	0.050253623	0.014810861
441	0.050291383	0.015095807
442	0.050346955	0.015458763
443	0.05039246	0.015821519
444	0.050465862	0.016208662
445	0.050555714	0.016624077
446	0.050597442	0.017039291
447	0.050653615	0.017410422
448	0.050715775	0.017809149
449	0.050774751	0.018264522
450	0.050849546	0.018673435
451	0.050881087	0.019072629
452	0.050906638	0.019461628
453	0.050975327	0.019829501
454	0.051042014	0.020166936
455	0.051083444	0.020450474
456	0.051104159	0.020708902
457	0.051126297	0.02099078
458	0.051139014	0.021189389
459	0.051168909	0.021371023
460	0.051200691	0.021560931
461	0.051161466	0.021703739
462	0.051188821	0.021818999
463	0.051220553	0.021930332
464	0.051196735	0.022051053
465	0.051203178	0.022164566
466	0.051219021	0.022266079
467	0.051217106	0.022362394
468	0.051179824	0.022466098
469	0.051163004	0.022589898
470	0.051155278	0.022691971
471	0.051160746	0.022783322
472	0.051198021	0.022924914
473	0.051196677	0.023076748
474	0.051172279	0.023218512
475	0.051154641	0.023355136
476	0.051167874	0.02353505
477	0.051190402	0.023718196
478	0.05120519	0.023896004
479	0.051204227	0.024065742
480	0.051206578	0.024200108
481	0.051217218	0.024343811
482	0.05123372	0.024514966
483	0.051248595	0.024705223
484	0.051265448	0.024873806
485	0.051298064	0.025068491
486	0.051341176	0.025307945
487	0.051358539	0.025547485
488	0.051410049	0.025820123
489	0.051474536	0.026118098
490	0.051526604	0.026438005
491	0.051605854	0.026828264
492	0.051703446	0.027257615
493	0.051809903	0.027719051
494	0.051917144	0.028224035
495	0.052028891	0.028799663
496	0.05217222	0.029429286
497	0.052353696	0.030117088
498	0.052550552	0.030899014
499	0.052784595	0.031748084
500	0.053054756	0.03268755
501	0.053353307	0.0337309
502	0.053663958	0.034823303
503	0.054040416	0.036039047
504	0.054481443	0.037392102
505	0.054965433	0.038871963
506	0.055523127	0.040509943
507	0.056154349	0.04227659
508	0.056873587	0.044183752
509	0.057709138	0.04628721
510	0.058632669	0.048536179
511	0.059671241	0.050960454
512	0.060843189	0.053578826
513	0.062117187	0.056341809
514	0.063529944	0.059298212
515	0.065095652	0.062460451
516	0.066815259	0.06581288
517	0.068666131	0.069279332
518	0.070671077	0.072870805
519	0.072816783	0.076584549
520	0.075046207	0.080387105
521	0.077357907	0.084247579
522	0.079737104	0.088104192
523	0.08215842	0.091902393
524	0.084590971	0.095630144
525	0.086996253	0.099256245
526	0.089335764	0.102744789
527	0.091579301	0.106057773
528	0.093742137	0.109159864
529	0.095774406	0.112064865
530	0.097658497	0.114778624
531	0.099412216	0.117291359
532	0.10104079	0.119594698
533	0.102531691	0.121692603
534	0.103880009	0.123596977
535	0.105118853	0.125339223
536	0.106188703	0.126898391
537	0.107122396	0.128297605
538	0.107981481	0.12957304
539	0.108751016	0.130732231
540	0.109429562	0.13178924
541	0.110048251	0.132777942
542	0.110666826	0.133747365
543	0.111247591	0.134650631
544	0.111815413	0.135526023
545	0.112391253	0.136407299
546	0.112956555	0.137273513
547	0.11350745	0.138123949
548	0.114035504	0.138946334
549	0.114526516	0.139719918
550	0.114946451	0.140406894
551	0.115280656	0.140995769
552	0.115500959	0.141459018
553	0.115562659	0.141748284
554	0.11546433	0.141831379
555	0.115181538	0.141699886
556	0.114703341	0.141353815
557	0.11406369	0.140792539
558	0.113265917	0.140031869
559	0.112338161	0.139108031
560	0.11131711	0.138062064
561	0.110201827	0.136887946
562	0.109005991	0.1355792
563	0.10772811	0.134132788
564	0.106353643	0.132559452
565	0.104895703	0.130857553
566	0.103342373	0.129012572
567	0.101688616	0.127022299
568	0.09997405	0.124939228
569	0.098219913	0.12276247
570	0.096442962	0.12052593
571	0.094657661	0.118277568
572	0.092941323	0.116056133
573	0.091281409	0.113894284
574	0.089682981	0.111815611
575	0.088196673	0.109834629
576	0.086791971	0.107944261
577	0.085476207	0.106160883
578	0.084257815	0.104494629
579	0.083113397	0.102912536
580	0.082049721	0.101418948
581	0.081055151	0.10001921
582	0.080106701	0.098712746
583	0.079235599	0.097469342
584	0.078431365	0.096305486
585	0.077682603	0.09522937
586	0.076986925	0.094222619
587	0.076346029	0.093284815
588	0.075758173	0.092422646
589	0.075219171	0.091639945
590	0.074741901	0.090944066
591	0.074324084	0.090322998
592	0.073957835	0.089774763
593	0.073629701	0.089304349
594	0.073335479	0.088903779
595	0.073079789	0.08855997
596	0.072857616	0.088252415
597	0.072637304	0.087943035
598	0.072412783	0.087645675
599	0.072175438	0.087332389
600	0.071914887	0.086962256
601	0.071620039	0.086535847
602	0.071281376	0.086039797
603	0.070895043	0.085458434
604	0.070465349	0.084778662
605	0.069968315	0.084002209
606	0.069411002	0.083126125
607	0.068809129	0.082154634
608	0.068181558	0.081111332
609	0.067526364	0.080007164
610	0.06685658	0.078866912
611	0.066190215	0.077717673
612	0.065526222	0.076550842
613	0.064869067	0.07538776
614	0.064230422	0.074248888
615	0.063631752	0.073150631
616	0.063076384	0.072103625
617	0.062560269	0.071130285
618	0.062082747	0.070249571
619	0.061659547	0.069460821
620	0.061293866	0.068753613
621	0.060977578	0.068131777
622	0.060697696	0.067607943
623	0.06045823	0.067165995
624	0.060259119	0.066809238
625	0.060100544	0.066534743
626	0.059981662	0.066322165
627	0.059874411	0.066178556
628	0.059784449	0.066085456
629	0.05972252	0.066016111
630	0.059679449	0.065954979
631	0.059615638	0.065869584
632	0.059516721	0.065726559
633	0.059389035	0.065493432
634	0.059221576	0.065156281
635	0.059004195	0.064685238
636	0.05873103	0.064063696
637	0.058406628	0.063305966
638	0.058037762	0.06240569
639	0.057629663	0.061403755
640	0.057191227	0.060346027
641	0.056752622	0.05920635
642	0.05630168	0.058017108
643	0.055841886	0.056801016
644	0.055393043	0.055568233
645	0.054954015	0.054347589
646	0.054529635	0.053158315
647	0.054130118	0.052022666
648	0.053776859	0.050973089
649	0.053464283	0.050033502
650	0.053194446	0.049203374
651	0.052963935	0.048460322
652	0.052751492	0.047783078
653	0.052544939	0.047125434
654	0.052334116	0.046444506
655	0.052106735	0.045701139
656	0.051868728	0.044872154
657	0.051613696	0.04394674
658	0.051339253	0.042926448
659	0.051057016	0.041823463
660	0.05078619	0.040659277
661	0.050530932	0.039463064
662	0.050287491	0.038267844
663	0.050068775	0.037101066
664	0.049880779	0.035978757
665	0.049732946	0.034923394
666	0.049637224	0.033966615
667	0.04955532	0.033085309
668	0.049503718	0.032302492
669	0.04950336	0.031637641
670	0.049542699	0.031060365
671	0.049599546	0.030579203
672	0.049677156	0.030192588
673	0.049793853	0.02989012
674	0.049943693	0.029648399
675	0.050113538	0.029467499
676	0.05030272	0.029352847
677	0.05052721	0.029309683
678	0.050781443	0.029344605
679	0.051061919	0.029492845
680	0.051366896	0.029797384
681	0.05170761	0.030288947
682	0.052082348	0.031021318
683	0.052492091	0.032042411
684	0.052941991	0.033396493
685	0.053453602	0.03512969
686	0.054054844	0.03732226
687	0.054782871	0.040058343
688	0.055679442	0.043414768
689	0.056852655	0.047477178
690	0.058399281	0.052326301
691	0.060416356	0.058029724
692	0.063013128	0.0646493
693	0.066277557	0.072147599
694	0.070282431	0.080476263
695	0.075079246	0.089569904
696	0.080653559	0.099320245
697	0.086994112	0.109640791
698	0.094074514	0.120433923
699	0.101837219	0.131556658
700	0.110169115	0.142914209
701	0.118982235	0.154402189
702	0.128196174	0.165925883
703	0.13769882	0.177383515
704	0.147420052	0.188754839
705	0.157294734	0.199987609
706	0.167278954	0.211025962
707	0.17735975	0.221908025
708	0.187502753	0.232613513
709	0.197706493	0.243149455
710	0.207987413	0.253539862
711	0.218294934	0.263762217
712	0.228624869	0.273817166
713	0.238971044	0.283701742
714	0.249309359	0.293424531
715	0.259620493	0.302968341
716	0.269864311	0.312302472
717	0.280012753	0.321418901
718	0.290068051	0.330315848
719	0.299980514	0.338983
720	0.30971457	0.347410664
721	0.319252304	0.355575427
722	0.328545439	0.363442976
723	0.337581991	0.371014158
724	0.346317534	0.378261129
725	0.354725991	0.385181854
726	0.362816533	0.391790019
727	0.370553822	0.398062174
728	0.377910401	0.40398526
729	0.384922911	0.409584875
730	0.391566563	0.41486852
731	0.397827956	0.419834344
732	0.403734943	0.424481895
733	0.409286827	0.428843503
734	0.414493326	0.432936517
735	0.419355491	0.436756976
736	0.423887188	0.440299755
737	0.428095391	0.4436
738	0.432000146	0.446671791
739	0.435635837	0.44952433
740	0.438977449	0.452156065
741	0.442039826	0.454581591
742	0.444851752	0.456828611
743	0.447430264	0.458916716
744	0.44977144	0.460817959
745	0.4519109	0.462578159
746	0.453851474	0.464206347
747	0.455599728	0.465675392
748	0.457170351	0.467010582
749	0.458576691	0.46823052
750	0.45983309	0.469348825
751	0.460966504	0.470374603
752	0.461973364	0.471302073
753	0.462864762	0.472140391
754	0.463669134	0.472914663
755	0.464362478	0.473597021
756	0.464980182	0.474226661
757	0.465537027	0.474818359
758	0.466030316	0.475355421
759	0.466448747	0.475850352
760	0.466809985	0.476295255
761	0.467142452	0.47668759
762	0.467409454	0.477041958
763	0.467641051	0.477358439
764	0.467837463	0.477637916
765	0.46798892	0.477898167
766	0.468100808	0.478111626
767	0.468196529	0.478319019
768	0.468283222	0.478535684
769	0.468338105	0.478717886
770	0.468392021	0.478904234
771	0.46843237	0.479075161
772	0.468454829	0.479218678
773	0.468488228	0.479364016
774	0.468510317	0.47951294
775	0.468523794	0.479656132
776	0.468539734	0.479777412
777	0.468535746	0.47989139
778	0.468528438	0.479999134
779	0.468529781	0.480104304
780	0.468534445	0.480208642
781	0.468527497	0.480319295
782	0.468526333	0.48042286
783	0.46853435	0.480509644
784	0.468532414	0.480618337
785	0.468530536	0.480716971
786	0.468526127	0.480800837
787	0.468520962	0.480884604
788	0.468518458	0.480984272
789	0.468527874	0.481082886
790	0.468534713	0.481174196
791	0.468519784	0.481267281
792	0.468517313	0.481344375
793	0.468510803	0.481416804
794	0.468492218	0.481489907
795	0.468508119	0.481590445
796	0.468503115	0.481668667
797	0.468488101	0.481743257
798	0.468486915	0.481839207
799	0.468484094	0.481923435
800	0.468485472	0.482003016
801	0.468493438	0.48209026
802	0.468491395	0.48217602
803	0.468488232	0.482246637
804	0.468477743	0.482312763
805	0.468464951	0.482383003
806	0.468480536	0.482481291
807	0.46847304	0.482563669
808	0.468481555	0.482651532
809	0.468508406	0.482744568
810	0.468516564	0.482827648
811	0.468547125	0.482925432
812	0.468567282	0.483021223
813	0.46859685	0.483142035
814	0.468670066	0.483286286
815	0.468745503	0.483420561
816	0.46882549	0.483565189
817	0.468898529	0.483722693
818	0.468957617	0.483871137
819	0.46902662	0.484003989
820	0.469105657	0.484133298
821	0.469163449	0.484260812
822	0.469241449	0.484397669
823	0.469297706	0.484522599
824	0.469337076	0.484635756
825	0.469421381	0.484765753
826	0.469471455	0.484883105
827	0.46951654	0.48499489
828	0.469581776	0.485110883
829	0.469644041	0.485228629
830	0.469683911	0.485330351
831	0.469727954	0.48543937
832	0.469801535	0.485572785
833	0.469853638	0.485659713
834	0.469911915	0.485766194
835	0.469989324	0.485897282
836	0.470070328	0.486016782
837	0.470133708	0.486132949
838	0.470192097	0.486248644
839	0.470247896	0.486356438
840	0.470317766	0.486469727
841	0.470381451	0.486598335
842	0.47044683	0.486721972
843	0.47052292	0.486844437
844	0.470593226	0.486973648
845	0.47065697	0.487087459
846	0.470719475	0.487196405
847	0.470784508	0.487313357
848	0.470843045	0.48743633
849	0.470908788	0.487562263
850	0.470967819	0.487673699
851	0.471016334	0.487769113
852	0.471076422	0.487874904
853	0.471124017	0.487982574
854	0.471159969	0.488081248
855	0.471198715	0.488172505
856	0.471226296	0.488269013
857	0.471266989	0.488366682
858	0.471309916	0.488453939
859	0.471340708	0.48853122
860	0.471384108	0.488623912
861	0.471412796	0.488707741
862	0.471431514	0.488786486
863	0.471467308	0.488880773
864	0.47149925	0.488945737
865	0.471518673	0.489008532
866	0.471527869	0.489079568
867	0.471540212	0.489144183
868	0.471538179	0.489207367
869	0.471550264	0.4892712
870	0.47157715	0.489331049
871	0.471570937	0.489375838
872	0.471571008	0.489431489
873	0.471574872	0.489495311
874	0.471578659	0.489557543
875	0.471589999	0.489602582
876	0.471587721	0.489664356
877	0.471590972	0.489730067
878	0.47161303	0.489786824
879	0.471608745	0.489857502
880	0.471609546	0.489916739
881	0.471610938	0.489967939
882	0.47159941	0.490018002
883	0.47160067	0.490068513
884	0.471628574	0.490137647
885	0.471656793	0.49021702
886	0.471674764	0.49030964
887	0.47168749	0.490377335
888	0.471693222	0.490447061
889	0.47171086	0.490530936
890	0.471757106	0.490623478
891	0.471787731	0.490715121
892	0.471828722	0.490804889
893	0.471877427	0.490904715
894	0.47187208	0.490988044
895	0.471871694	0.491054618
896	0.471886227	0.491114334
897	0.471886161	0.491156801
898	0.471868322	0.491206312
899	0.471842752	0.491247922
900	0.471842029	0.49129024
901	0.471844303	0.491326718
902	0.471805886	0.491362691
903	0.471820298	0.491413872
904	0.471828765	0.491470093
905	0.471813484	0.491523839
906	0.471819643	0.491564326
907	0.471790304	0.491603401
908	0.471770536	0.491642701
909	0.471773472	0.49168369
910	0.47174401	0.491727339
911	0.471743705	0.491758514
912	0.471744477	0.491787732
913	0.471731025	0.491825076
914	0.471725968	0.491861463
915	0.471703395	0.491896374
916	0.471675515	0.491936479
917	0.471656757	0.491972604
918	0.47165664	0.491976951
919	0.471629229	0.491989791
920	0.471579609	0.492020624
921	0.471525289	0.492049841
922	0.471483739	0.492027397
923	0.471447008	0.492023282
924	0.4713805	0.492040461
925	0.471292082	0.492061045
926	0.471276269	0.492064012
927	0.471218775	0.492025966
928	0.471142558	0.491999796
929	0.471080628	0.492004728
930	0.471022649	0.491966456
931	0.470921616	0.491965254
932	0.470821692	0.491939273
933	0.47075153	0.491861755
934	0.470652821	0.491823929
935	0.470557992	0.49178826
936	0.470466743	0.491737676
937	0.47036193	0.491674172
938	0.47021159	0.491623919
939	0.470064022	0.491568873
940	0.469953487	0.491495525
941	0.469857481	0.491408426
942	0.469682193	0.491349007
943	0.469500888	0.491245992
944	0.46933625	0.491121782
945	0.469170588	0.491001927
946	0.468956298	0.490888622
947	0.468762107	0.490722281
948	0.468516036	0.490532889
949	0.468209075	0.490345792
950	0.467958569	0.49015164
951	0.46769452	0.489955456
952	0.467393811	0.489756436
953	0.467067372	0.489534352
954	0.466757419	0.489259265
955	0.466449461	0.489043098
956	0.46615812	0.488850968
957	0.465879152	0.48863531
958	0.465589458	0.488382002
959	0.465312173	0.488210177
960	0.465105561	0.488066583
961	0.464938587	0.487927236
962	0.464717697	0.487818731
963	0.464568644	0.487738476
964	0.464432592	0.487651967
965	0.464295303	0.48757848
966	0.464188849	0.487562364
967	0.464098366	0.487510175
968	0.463988202	0.4874815
969	0.463886887	0.487466478
970	0.46384103	0.487425188
971	0.463784945	0.487445996
972	0.463707062	0.487425904
973	0.46363609	0.487396424
974	0.463597982	0.487423475
975	0.463537308	0.487420243
976	0.463525586	0.487488856
977	0.463521056	0.487534405
978	0.463469745	0.487485657
979	0.463401679	0.487547505
980	0.463463671	0.48761007
981	0.463520344	0.487682741
982	0.463483622	0.487786269
983	0.463534974	0.487891014
984	0.463619962	0.487910103
985	0.463651608	0.487952515
986	0.463641004	0.488064414
987	0.463731227	0.488138833
988	0.463787348	0.488240825
989	0.463800006	0.488340013
990	0.463822213	0.488439559
991	0.463924456	0.488585066
992	0.463937737	0.488703728
993	0.463970772	0.488795471
994	0.464059295	0.488861552
995	0.464157365	0.488917755
996	0.464211849	0.489074068
997	0.464302009	0.489154214
998	0.464385909	0.489217594
999	0.464405613	0.489389841
1000	0.464461321	0.489607654
1001	0.465801285	0.49131226
1002	0.465965658	0.491500148
1003	0.466088684	0.491707826
1004	0.466226292	0.491834054
1005	0.466323129	0.491962817
1006	0.46645655	0.492133261
1007	0.466596091	0.492271864
1008	0.466782095	0.492380436
1009	0.466888624	0.492518029
1010	0.466968535	0.49267908
1011	0.467030299	0.49279145
1012	0.467136167	0.492917694
1013	0.467274833	0.493055192
1014	0.467424986	0.493210609
1015	0.467580009	0.493332486
1016	0.467660918	0.493436542
1017	0.467706124	0.493587817
1018	0.467799764	0.49372829
1019	0.467917687	0.493862484
1020	0.468011789	0.494020853
1021	0.468094204	0.494222445
1022	0.468184057	0.494380988
1023	0.468258619	0.494520842
1024	0.468348633	0.494669041
1025	0.468469995	0.49481571
1026	0.468602652	0.494951942
1027	0.468732582	0.49511959
1028	0.468814887	0.495261759
1029	0.4688784	0.495390254
1030	0.468962728	0.49553961
1031	0.469088585	0.495664062
1032	0.469199288	0.495793239
1033	0.469261994	0.49591704
1034	0.469354111	0.496014526
1035	0.469453626	0.496117337
1036	0.469532635	0.496195676
1037	0.469620165	0.496305904
1038	0.46975602	0.496451321
1039	0.469868462	0.496579958
1040	0.469918846	0.496711638
1041	0.469987226	0.496838565
1042	0.470056961	0.496943654
1043	0.470078562	0.497024241
1044	0.470142882	0.497058545
1045	0.4702015	0.497126265
1046	0.470249222	0.497239339
1047	0.470326501	0.49734291
1048	0.470350386	0.497448895
1049	0.47038437	0.497552082
1050	0.470411629	0.497653499
1051	0.470458408	0.49771923
