#	Leaf optical properties from FREEDLES data	
#	"Hovi, A., Schraik, D., Hanu, J., Luke, P., et al. (2024) A spectral-structural characterization of European temperate, hemiboreal and boreal forests: Laboratory and field data. [Online]. Available from: doi:10.23729/9a8d90cd-73e2-438d-9230-94e10e61adc9."	
#	Picea Abies	
#	"Hyytiðlð, Finland, midsummer, average of all measurements"	
#wl(nm)	reflectance	transmittance
350	0.162957023	0.140276036
351	0.156598052	0.128272415
352	0.149088357	0.127276085
353	0.140380061	0.12217846
354	0.130569053	0.107001316
355	0.118988106	0.101754026
356	0.111387532	0.0934892
357	0.104109754	0.084736086
358	0.094591226	0.078183226
359	0.086014843	0.070484424
360	0.079069472	0.065345154
361	0.073485056	0.061675575
362	0.068789386	0.057893276
363	0.065309996	0.054317282
364	0.061227538	0.051927988
365	0.058239842	0.050014883
366	0.057736034	0.047825411
367	0.055418971	0.046954788
368	0.052868828	0.045487135
369	0.051245906	0.043689987
370	0.050974034	0.042779455
371	0.050886715	0.041818617
372	0.049947796	0.041319642
373	0.048722742	0.041082911
374	0.04876204	0.040359415
375	0.047871419	0.039985281
376	0.047158928	0.039689476
377	0.047036348	0.039253347
378	0.046488713	0.0387181
379	0.046015437	0.03829575
380	0.045664801	0.037940679
381	0.045460951	0.037643653
382	0.045613515	0.037635625
383	0.045433694	0.037223038
384	0.045177281	0.03680079
385	0.045165162	0.036797885
386	0.044935579	0.036667348
387	0.044913936	0.03649088
388	0.044936463	0.036314934
389	0.044677588	0.036147427
390	0.0444842	0.035842204
391	0.044368977	0.035746801
392	0.044357447	0.035867281
393	0.044465398	0.035923542
394	0.044528992	0.035719588
395	0.044632797	0.035568954
396	0.044697269	0.035566619
397	0.04447046	0.035506493
398	0.044390043	0.035569709
399	0.044513149	0.035549797
400	0.044685706	0.035391316
401	0.044528459	0.03544854
402	0.044431709	0.035536061
403	0.044578638	0.035512027
404	0.044938958	0.035365965
405	0.045042986	0.035434916
406	0.045330477	0.035500756
407	0.045641018	0.035578097
408	0.045662115	0.035750201
409	0.045701709	0.035929991
410	0.046079125	0.036010396
411	0.046552812	0.036113626
412	0.046585986	0.036454765
413	0.046867876	0.036516281
414	0.047230722	0.036577752
415	0.047558767	0.036788528
416	0.047930284	0.037016647
417	0.048159523	0.037178983
418	0.048382632	0.037341072
419	0.048714581	0.037553342
420	0.049081966	0.037755616
421	0.049335586	0.037894299
422	0.049553324	0.038067921
423	0.049838476	0.038343844
424	0.05006502	0.038483489
425	0.050371334	0.038559149
426	0.050689507	0.038649968
427	0.050866992	0.038809638
428	0.051044544	0.038929474
429	0.051193604	0.039021869
430	0.051306094	0.039120031
431	0.051409718	0.039260065
432	0.051517934	0.039383155
433	0.051631668	0.039436876
434	0.051764584	0.039437485
435	0.051968116	0.039518234
436	0.052070459	0.039597411
437	0.052126858	0.03969761
438	0.052231023	0.039833373
439	0.052343996	0.03988374
440	0.052490391	0.039932906
441	0.052633604	0.040023439
442	0.052719492	0.040160714
443	0.05280528	0.040300639
444	0.052968983	0.040406736
445	0.053182527	0.040503269
446	0.053315442	0.040668497
447	0.053511841	0.040817542
448	0.053733933	0.040982644
449	0.053930995	0.041170399
450	0.054090049	0.04128594
451	0.054269815	0.041389892
452	0.054458186	0.041522673
453	0.054622251	0.041693897
454	0.054742748	0.04181363
455	0.054858399	0.04192203
456	0.054963413	0.042024748
457	0.055029928	0.042102131
458	0.055127027	0.042140831
459	0.05517709	0.042204475
460	0.055175573	0.042291167
461	0.055237101	0.042303415
462	0.05522457	0.042378706
463	0.055215106	0.042406943
464	0.055270232	0.042329843
465	0.055272432	0.042405058
466	0.05524414	0.042421331
467	0.055212283	0.042405847
468	0.055205295	0.042461319
469	0.055232475	0.042449047
470	0.055255384	0.042479527
471	0.055260017	0.042559966
472	0.055261534	0.042590053
473	0.055294364	0.042659005
474	0.05530673	0.04273069
475	0.055285528	0.042774413
476	0.055324512	0.042809177
477	0.055392351	0.042882164
478	0.055435887	0.042969265
479	0.055424131	0.043036279
480	0.05545145	0.043127974
481	0.05550484	0.043175507
482	0.055561674	0.043209769
483	0.055598969	0.043320098
484	0.055649587	0.043387541
485	0.055705419	0.043457708
486	0.055777868	0.043562134
487	0.055918388	0.043676612
488	0.056037864	0.043809565
489	0.056196345	0.043979694
490	0.056441903	0.044190546
491	0.056626928	0.044383323
492	0.056900813	0.044604163
493	0.057288719	0.044882106
494	0.057736903	0.045225709
495	0.058218215	0.045573482
496	0.058756172	0.045999727
497	0.059363663	0.04650487
498	0.060031365	0.046979733
499	0.060788485	0.04755772
500	0.061671817	0.048212273
501	0.062689778	0.048908197
502	0.063760625	0.049694205
503	0.064994966	0.050582705
504	0.066394474	0.051564036
505	0.067909856	0.05262443
506	0.069527684	0.053791041
507	0.071298903	0.055092321
508	0.073250251	0.056518471
509	0.075367514	0.058015624
510	0.077653505	0.059638356
511	0.08010085	0.061402712
512	0.082705544	0.063299383
513	0.08548589	0.065280731
514	0.088438228	0.067389348
515	0.091532227	0.06963
516	0.094732399	0.071986724
517	0.098042393	0.074425968
518	0.101416093	0.076926278
519	0.104829023	0.079477569
520	0.108272258	0.082071554
521	0.111672854	0.084601752
522	0.115010056	0.087087088
523	0.118245705	0.089534546
524	0.121285078	0.091871501
525	0.124166361	0.094083493
526	0.12686402	0.096167859
527	0.129338087	0.098120095
528	0.131625308	0.099889217
529	0.13368363	0.101490411
530	0.135509576	0.102945025
531	0.13714217	0.104272911
532	0.138621628	0.105487125
533	0.13994559	0.106570438
534	0.141106073	0.107524406
535	0.142113191	0.10841954
536	0.142979151	0.109206659
537	0.143733908	0.109889389
538	0.144406496	0.110490961
539	0.144987435	0.11101267
540	0.145519733	0.111533876
541	0.146020103	0.1120606
542	0.146472644	0.112517772
543	0.146931953	0.112992379
544	0.147409861	0.11348584
545	0.147904504	0.113982672
546	0.14840972	0.114473582
547	0.148905294	0.114961398
548	0.149387195	0.115446398
549	0.149853182	0.115922418
550	0.150266749	0.11635671
551	0.150576071	0.116713742
552	0.150753571	0.11697186
553	0.15079949	0.11712466
554	0.150640978	0.117120818
555	0.150268689	0.11696326
556	0.149697321	0.116663415
557	0.148961721	0.116218013
558	0.14802782	0.11561837
559	0.146935372	0.114882877
560	0.145757537	0.114046619
561	0.144504653	0.113142746
562	0.143152561	0.11217724
563	0.141689356	0.11113742
564	0.140133908	0.109999716
565	0.138467745	0.108752837
566	0.136669758	0.107407739
567	0.134737116	0.105981356
568	0.132730223	0.104490559
569	0.130629375	0.102919475
570	0.128477867	0.101308333
571	0.126345474	0.099720979
572	0.124235531	0.098154495
573	0.122186756	0.096630885
574	0.120228475	0.095169404
575	0.118371378	0.093781124
576	0.116610574	0.092497009
577	0.114950011	0.091285276
578	0.113390767	0.090114771
579	0.111915834	0.089032839
580	0.110543202	0.088016674
581	0.109261331	0.087059402
582	0.108036664	0.086162903
583	0.10688378	0.085314913
584	0.105795891	0.08452386
585	0.104769961	0.083790062
586	0.103814322	0.083094301
587	0.102920592	0.082444987
588	0.102091138	0.081854356
589	0.101326064	0.081325214
590	0.100629439	0.080835624
591	0.10001007	0.080402465
592	0.099463132	0.080030002
593	0.098970643	0.079708477
594	0.098546882	0.079443158
595	0.098176243	0.079208122
596	0.09783777	0.078984703
597	0.097509903	0.078781769
598	0.097172627	0.078570405
599	0.096815421	0.078344028
600	0.096427651	0.078101057
601	0.095982007	0.077824061
602	0.095470371	0.077487485
603	0.094888249	0.077084357
604	0.094236916	0.076631113
605	0.093487497	0.076119445
606	0.092664966	0.075554538
607	0.091786378	0.074940938
608	0.090811113	0.074274422
609	0.089795228	0.073570161
610	0.088759809	0.072841794
611	0.087707966	0.072102834
612	0.086649194	0.07137209
613	0.085609803	0.070637947
614	0.084604072	0.069912394
615	0.083630019	0.069243221
616	0.082701472	0.068590256
617	0.081846867	0.067979266
618	0.081080438	0.067440714
619	0.080353932	0.066961647
620	0.079710978	0.066526808
621	0.079155326	0.066140076
622	0.07866662	0.065817473
623	0.078244529	0.065545176
624	0.077880895	0.065327002
625	0.077582823	0.0651644
626	0.077380518	0.065048691
627	0.077218394	0.064972172
628	0.077093108	0.064926999
629	0.077006984	0.064903571
630	0.076923508	0.064891261
631	0.076824911	0.06486885
632	0.076686509	0.064815474
633	0.076478099	0.064710911
634	0.076182266	0.064543305
635	0.075767491	0.064276641
636	0.075218676	0.063894036
637	0.074558331	0.063424747
638	0.073777743	0.062864939
639	0.072909523	0.062227858
640	0.071989258	0.061531766
641	0.070981869	0.060787024
642	0.069948475	0.060012112
643	0.068907051	0.059210649
644	0.067829392	0.058374168
645	0.066751214	0.05757484
646	0.065698593	0.056795274
647	0.064701559	0.056030661
648	0.063802004	0.055349658
649	0.06300902	0.054765051
650	0.062327211	0.054264153
651	0.061742249	0.053816953
652	0.061200748	0.053425379
653	0.060693569	0.05305848
654	0.060191301	0.052690745
655	0.059634021	0.052301866
656	0.059029052	0.051853121
657	0.058351198	0.051325035
658	0.057585591	0.050726325
659	0.05675429	0.050124799
660	0.055880314	0.049453806
661	0.055000075	0.048739304
662	0.0541516	0.048050581
663	0.053328897	0.047376981
664	0.05258567	0.046718449
665	0.051937802	0.046099241
666	0.051340535	0.045572295
667	0.050849378	0.045104638
668	0.050464893	0.044703393
669	0.050173063	0.044371977
670	0.049968705	0.044069076
671	0.04984063	0.043834178
672	0.049777467	0.043667142
673	0.049770739	0.043541742
674	0.049835314	0.043445503
675	0.049957578	0.043388917
676	0.050135697	0.043373988
677	0.050387469	0.043380483
678	0.050696438	0.043443423
679	0.051072922	0.043564053
680	0.05154129	0.043748494
681	0.052145703	0.044057103
682	0.052905172	0.044517826
683	0.053832556	0.045145506
684	0.05494667	0.045954937
685	0.056355475	0.047051892
686	0.058108444	0.048463068
687	0.060283517	0.05023315
688	0.063014192	0.052452024
689	0.066372098	0.055173626
690	0.070439105	0.058462417
691	0.075278855	0.062364369
692	0.08091429	0.066870212
693	0.087344929	0.072005595
694	0.094521844	0.077751583
695	0.102355218	0.084049437
696	0.110799188	0.090862577
697	0.11973041	0.098135035
698	0.12903989	0.105800263
699	0.138644777	0.113763507
700	0.148441926	0.121979676
701	0.158332822	0.130376316
702	0.168236227	0.1388837
703	0.178083106	0.147443162
704	0.187840244	0.156029227
705	0.197486495	0.164597758
706	0.207021245	0.173107217
707	0.216454772	0.181602401
708	0.225788251	0.19004407
709	0.235040832	0.198433014
710	0.244229904	0.206832129
711	0.253365106	0.215165292
712	0.262450962	0.223439262
713	0.27147804	0.231677581
714	0.280442814	0.239899113
715	0.289345694	0.248055696
716	0.298164309	0.256118243
717	0.30688877	0.264098106
718	0.315519992	0.27196821
719	0.324011355	0.279715101
720	0.332340344	0.287332315
721	0.34052515	0.294805414
722	0.348495811	0.302069989
723	0.356245205	0.309124581
724	0.363744884	0.315950715
725	0.370978519	0.322534744
726	0.37794102	0.328876568
727	0.384603611	0.334944334
728	0.390954877	0.340716609
729	0.396984499	0.346199138
730	0.402705316	0.351397171
731	0.408117813	0.356312051
732	0.413208797	0.360947857
733	0.418003512	0.365332479
734	0.422510381	0.369455778
735	0.426721881	0.373299274
736	0.430644128	0.376903932
737	0.434314891	0.380279011
738	0.437729391	0.383421982
739	0.44087185	0.386337253
740	0.443788293	0.389067594
741	0.446472367	0.391603986
742	0.448931407	0.393954391
743	0.45117709	0.396138875
744	0.45322398	0.398136504
745	0.455099147	0.399988769
746	0.456793835	0.401702878
747	0.458317076	0.403247188
748	0.45968231	0.404682135
749	0.460898145	0.406003852
750	0.461976056	0.40718387
751	0.462968264	0.408282551
752	0.463844635	0.409276257
753	0.464605473	0.410163908
754	0.465292072	0.410976946
755	0.465888044	0.411715755
756	0.466416258	0.412398476
757	0.466885317	0.413024284
758	0.467313335	0.413593856
759	0.467676876	0.41411359
760	0.467988612	0.414589489
761	0.468275378	0.41502743
762	0.468504798	0.415387443
763	0.468682751	0.415732016
764	0.468823345	0.416062588
765	0.468959531	0.416341082
766	0.469055645	0.41658472
767	0.46913226	0.416814915
768	0.469201126	0.417036449
769	0.469246048	0.417226487
770	0.469298736	0.417421909
771	0.469330087	0.417606163
772	0.46932617	0.417768975
773	0.469347928	0.417943259
774	0.469370632	0.418097892
775	0.469390469	0.418242363
776	0.469410208	0.418399449
777	0.469406049	0.418518943
778	0.469406651	0.418620848
779	0.469418573	0.41873207
780	0.469410915	0.418870673
781	0.469413825	0.418995658
782	0.469424719	0.419101545
783	0.469432737	0.419194944
784	0.469454481	0.419316456
785	0.469454895	0.419429242
786	0.469450396	0.419527262
787	0.469471626	0.419624262
788	0.469479838	0.419734206
789	0.469498064	0.419856266
790	0.469517578	0.419968669
791	0.469517142	0.420049368
792	0.469528668	0.420149335
793	0.469534088	0.420240937
794	0.469525735	0.420313838
795	0.469552934	0.420425386
796	0.469562058	0.420504412
797	0.469565847	0.420588769
798	0.469582367	0.420709835
799	0.469567576	0.420784731
800	0.46957945	0.420868828
801	0.469609857	0.420972748
802	0.469614948	0.421072113
803	0.469631844	0.421166473
804	0.469642365	0.421238262
805	0.469640091	0.421297409
806	0.469650895	0.421390547
807	0.469661543	0.421487769
808	0.469682226	0.421589345
809	0.469705939	0.421681621
810	0.469723803	0.421751248
811	0.469754024	0.421856547
812	0.469781755	0.421962391
813	0.469834579	0.422073871
814	0.469908297	0.422208969
815	0.469970574	0.422347955
816	0.470038297	0.422492791
817	0.470113978	0.422631622
818	0.470190003	0.422784389
819	0.470268272	0.422910085
820	0.47035303	0.423025887
821	0.470427396	0.423161208
822	0.470483573	0.423289017
823	0.470527881	0.423388903
824	0.470574068	0.423476981
825	0.470642067	0.42360553
826	0.470682974	0.42370444
827	0.470718393	0.423791881
828	0.470758497	0.423883231
829	0.47076294	0.423954184
830	0.470786398	0.42402818
831	0.470825909	0.424115636
832	0.47086744	0.424217196
833	0.470886239	0.424290749
834	0.470928942	0.424367053
835	0.470994454	0.424466595
836	0.47104868	0.424580689
837	0.471109313	0.424672646
838	0.471181787	0.424780884
839	0.471248085	0.424897706
840	0.471304894	0.425006899
841	0.471378428	0.425120939
842	0.471456192	0.425247321
843	0.471537988	0.425389794
844	0.471617848	0.425526651
845	0.471682794	0.425644614
846	0.471744225	0.425752962
847	0.471812246	0.425864933
848	0.471878619	0.425984413
849	0.471957115	0.42611778
850	0.472012069	0.426229224
851	0.472038143	0.426308584
852	0.472125417	0.426421975
853	0.472179313	0.426537772
854	0.472210074	0.426635471
855	0.472259957	0.426714741
856	0.472295789	0.426800462
857	0.472331227	0.426902305
858	0.472358329	0.427004447
859	0.472374272	0.427089177
860	0.472413609	0.427158129
861	0.472443118	0.427218606
862	0.472462654	0.427285173
863	0.472495744	0.427370511
864	0.472510879	0.427439735
865	0.472528329	0.427513366
866	0.472551669	0.427590205
867	0.472562593	0.427643425
868	0.472563969	0.427701122
869	0.472562795	0.427766914
870	0.47256262	0.427832987
871	0.472562379	0.427883781
872	0.472573541	0.427933134
873	0.472576699	0.427985513
874	0.472569428	0.428043062
875	0.47259319	0.428102852
876	0.472599804	0.428155869
877	0.472591903	0.428213907
878	0.472583988	0.428280873
879	0.472571401	0.428312011
880	0.472562108	0.428362579
881	0.472560838	0.428415407
882	0.472556534	0.428444677
883	0.472505324	0.428522012
884	0.47252654	0.428589273
885	0.472569945	0.428629637
886	0.472557237	0.428677529
887	0.472545257	0.428755388
888	0.472533006	0.428803999
889	0.472534997	0.428849169
890	0.47255981	0.428942673
891	0.472547802	0.428970641
892	0.472571954	0.429031309
893	0.472622592	0.429142524
894	0.472592934	0.429210211
895	0.472567076	0.429218125
896	0.472556081	0.429247384
897	0.472525704	0.429285173
898	0.472469907	0.429282101
899	0.472451306	0.429297432
900	0.472416318	0.429308246
901	0.472345339	0.429300546
902	0.472298436	0.429305618
903	0.47228001	0.42931917
904	0.472251715	0.429327645
905	0.472208231	0.429333947
906	0.472178775	0.429348816
907	0.472132128	0.429334803
908	0.472087492	0.429312419
909	0.47204221	0.429307016
910	0.471953864	0.429329107
911	0.471900994	0.429328401
912	0.471864691	0.429321226
913	0.471825017	0.429303458
914	0.471783494	0.429214963
915	0.471700938	0.429166899
916	0.471615242	0.429153068
917	0.471555138	0.42913943
918	0.471509057	0.429102141
919	0.471403354	0.429060287
920	0.471276826	0.429014545
921	0.471166586	0.428951275
922	0.471057064	0.428844221
923	0.470913276	0.428759942
924	0.470750948	0.428679744
925	0.470587059	0.428575872
926	0.470414564	0.42844756
927	0.470223164	0.428312049
928	0.470036935	0.428166313
929	0.46985883	0.428007222
930	0.469643649	0.427847494
931	0.469428632	0.427673522
932	0.469167709	0.427476523
933	0.468865718	0.427254096
934	0.468642393	0.427002024
935	0.468358186	0.426810811
936	0.468030952	0.42656965
937	0.467703212	0.426244026
938	0.467383684	0.426023237
939	0.467053544	0.425718581
940	0.46670927	0.425409429
941	0.466336526	0.425147833
942	0.465908987	0.424837471
943	0.465464564	0.424424175
944	0.465013133	0.423972531
945	0.464540618	0.423537241
946	0.464019964	0.423112349
947	0.463442925	0.422644996
948	0.462839899	0.422100552
949	0.462202013	0.421487197
950	0.461463513	0.420861063
951	0.460762358	0.420139456
952	0.460044849	0.419431181
953	0.459275012	0.418780075
954	0.458490462	0.418105358
955	0.457674927	0.417438213
956	0.456891776	0.416743094
957	0.456180525	0.416044901
958	0.455533297	0.41543564
959	0.454909796	0.414886366
960	0.454346809	0.414337386
961	0.453829177	0.41382677
962	0.453302125	0.413470204
963	0.452854702	0.413212938
964	0.452497088	0.412942055
965	0.452204679	0.412653734
966	0.451933617	0.412425868
967	0.451652922	0.412219902
968	0.451414997	0.412035399
969	0.451194679	0.411890147
970	0.450951516	0.411786281
971	0.45085126	0.411606839
972	0.450699046	0.411503153
973	0.450506333	0.411479567
974	0.450380188	0.411454829
975	0.450336519	0.41136807
976	0.450276768	0.411359381
977	0.450196811	0.41141547
978	0.450136293	0.4114572
979	0.450127135	0.411402088
980	0.45009655	0.411516552
981	0.450112133	0.411701984
982	0.450226419	0.411814373
983	0.450368732	0.411868451
984	0.450400711	0.412046079
985	0.450429775	0.412216448
986	0.450561976	0.412332141
987	0.450786832	0.412559642
988	0.45092063	0.412805615
989	0.451035297	0.412978417
990	0.451216796	0.413192824
991	0.451488785	0.413679509
992	0.451642206	0.413926488
993	0.451888809	0.414114887
994	0.452176174	0.414392269
995	0.452319658	0.414769809
996	0.452618664	0.41504
997	0.452814829	0.415222979
998	0.45298825	0.415451078
999	0.453299124	0.415800141
1000	0.45356863	0.416016947
1001	0.454867878	0.417284632
1002	0.455075803	0.417640402
1003	0.455401926	0.417855885
1004	0.455741636	0.418064109
1005	0.456019758	0.418379939
1006	0.456386021	0.418751167
1007	0.456727997	0.419119085
1008	0.457082495	0.419632867
1009	0.45740969	0.42000937
1010	0.457736123	0.420303874
1011	0.458047606	0.420592937
1012	0.458322122	0.420916063
1013	0.458621235	0.42124208
1014	0.458977123	0.421644199
1015	0.459286321	0.422071727
1016	0.459583049	0.422453513
1017	0.45992707	0.422768911
1018	0.460261728	0.423043257
1019	0.460556616	0.423273111
1020	0.460854809	0.423568331
1021	0.461163071	0.423916602
1022	0.461452091	0.424245585
1023	0.461681333	0.424590742
1024	0.462004034	0.424926759
1025	0.462420843	0.425261781
1026	0.462740295	0.42550509
1027	0.463059394	0.42576978
1028	0.463402014	0.426109311
1029	0.46362152	0.426437964
1030	0.463837037	0.426742643
1031	0.46411174	0.427036378
1032	0.464372977	0.427361294
1033	0.464629675	0.427659163
1034	0.464937451	0.427919991
1035	0.465216315	0.428215461
1036	0.465517034	0.428569137
1037	0.465741551	0.428836023
1038	0.465953995	0.42903716
1039	0.466101123	0.429339004
1040	0.466248564	0.429631291
1041	0.466452969	0.429836877
1042	0.466653345	0.430033064
1043	0.46687522	0.430212555
1044	0.467044798	0.43037703
1045	0.46719091	0.430558837
1046	0.467344751	0.430768536
1047	0.467520743	0.431012226
1048	0.467745562	0.431159327
1049	0.467927764	0.431322819
1050	0.468095225	0.431467429
1051	0.468277013	0.431704502
